time (s)	det(V)
427589.399625	-0.043765	
427589.403622	-0.045088	
427589.405624	-0.049599	
427589.407624	-0.051505	
427589.411625	-0.054345	
427589.413625	-0.056419	
427589.415626	-0.059060	
427589.417625	-0.060839	
427589.419625	-0.063996	
427589.421625	-0.065057	
427589.425625	-0.068462	
427589.427625	-0.072279	
427589.429625	-0.075106	
427589.431628	-0.077539	
427589.433625	-0.079410	
427589.435624	-0.081537	
427589.437627	-0.085146	
427589.439625	-0.086658	
427589.441624	-0.089722	
427589.445635	-0.091868	
427589.449637	-0.096760	
427589.451637	-0.100573	
427589.453638	-0.102900	
427589.455636	-0.104489	
427589.457637	-0.106337	
427589.461634	-0.108519	
427589.463636	-0.112079	
427589.465637	-0.113419	
427589.469641	-0.115308	
427589.471641	-0.117492	
427589.473641	-0.118351	
427589.475644	-0.119917	
427589.477641	-0.120535	
427589.479641	-0.121542	
427589.481641	-0.123165	
427589.485641	-0.124266	
427589.487643	-0.126641	
427589.489643	-0.126344	
427589.491642	-0.127175	
427589.493642	-0.127786	
427589.495643	-0.127914	
427589.497645	-0.128627	
427589.501641	-0.129473	
427589.503643	-0.132804	
427589.505643	-0.132759	
427589.507643	-0.134121	
427589.509645	-0.134334	
427589.511643	-0.134573	
427589.513642	-0.136016	
427589.515643	-0.137233	
427589.517642	-0.138569	
427589.521642	-0.140492	
427589.525641	-0.144410	
427589.527643	-0.147001	
427589.529643	-0.148895	
427589.531646	-0.150947	
427589.533643	-0.153869	
427589.535644	-0.156424	
427589.539641	-0.158817	
427589.541643	-0.164508	
427589.543643	-0.167766	
427589.547642	-0.169684	
427589.549643	-0.175768	
427589.551645	-0.179333	
427589.553643	-0.182474	
427589.555643	-0.186304	
427589.557643	-0.189156	
427589.561641	-0.193869	
427589.565644	-0.199319	
427589.567645	-0.205869	
427589.569646	-0.209763	
427589.571643	-0.212526	
427589.573643	-0.215604	
427589.577642	-0.218578	
427589.579645	-0.225585	
427589.581644	-0.227811	
427589.585645	-0.231107	
427589.587645	-0.235200	
427589.589645	-0.237092	
427589.591644	-0.239509	
427589.593645	-0.241301	
427589.595645	-0.242322	
427589.597653	-0.244537	
427589.601651	-0.246815	
427589.603651	-0.249092	
427589.605651	-0.249035	
427589.607652	-0.249335	
427589.609651	-0.250271	
427589.611651	-0.250155	
427589.613651	-0.249733	
427589.615651	-0.249941	
427589.617651	-0.250272	
427589.621652	-0.250651	
427589.623651	-0.250272	
427589.625651	-0.249234	
427589.627651	-0.247509	
427589.629651	-0.246742	
427589.631651	-0.246524	
427589.633651	-0.245227	
427589.635651	-0.244554	
427589.637651	-0.244876	
427589.641650	-0.243958	
427589.643651	-0.242585	
427589.645651	-0.241309	
427589.647650	-0.240472	
427589.649651	-0.238913	
427589.651651	-0.239122	
427589.653651	-0.239106	
427589.657649	-0.237288	
427589.661650	-0.237110	
427589.663654	-0.236128	
427589.665656	-0.235277	
427589.667654	-0.235059	
427589.669655	-0.235198	
427589.671655	-0.234784	
427589.675653	-0.233146	
427589.677656	-0.233072	
427589.679654	-0.233783	
427589.683654	-0.232676	
427589.685655	-0.231138	
427589.687655	-0.230706	
427589.689654	-0.229995	
427589.691655	-0.229975	
427589.693655	-0.228482	
427589.697658	-0.228571	
427589.701659	-0.228109	
427589.703659	-0.226164	
427589.705659	-0.224344	
427589.707659	-0.223818	
427589.709659	-0.222698	
427589.713656	-0.220763	
427589.715659	-0.219859	
427589.717659	-0.216572	
427589.721659	-0.216184	
427589.723660	-0.209658	
427589.725659	-0.207359	
427589.727659	-0.204661	
427589.729659	-0.201806	
427589.731659	-0.199116	
427589.733661	-0.195797	
427589.737660	-0.194171	
427589.739659	-0.187245	
427589.741659	-0.183730	
427589.743659	-0.179769	
427589.745659	-0.175700	
427589.747659	-0.172480	
427589.749658	-0.169483	
427589.751659	-0.164957	
427589.753659	-0.162882	
427589.757657	-0.157161	
427589.759659	-0.151405	
427589.761659	-0.147810	
427589.763660	-0.144063	
427589.765660	-0.141150	
427589.767660	-0.137412	
427589.769661	-0.135775	
427589.773658	-0.131227	
427589.777659	-0.124998	
427589.779661	-0.118177	
427589.781661	-0.115283	
427589.783663	-0.111490	
427589.785661	-0.109064	
427589.787660	-0.105682	
427589.791659	-0.102146	
427589.793661	-0.094871	
427589.795661	-0.094005	
427589.799661	-0.089757	
427589.801663	-0.082231	
427589.803660	-0.079422	
427589.805661	-0.074706	
427589.807662	-0.073737	
427589.809661	-0.070941	
427589.813661	-0.067488	
427589.817660	-0.063811	
427589.819662	-0.057326	
427589.821661	-0.054280	
427589.823661	-0.051644	
427589.825661	-0.049792	
427589.829659	-0.045917	
427589.831661	-0.040119	
427589.833661	-0.037486	
427589.837661	-0.034038	
427589.839661	-0.026082	
427589.841661	-0.022975	
427589.843661	-0.019517	
427589.845661	-0.014781	
427589.847661	-0.011834	
427589.851672	-0.008032	
427589.855671	-0.001748	
427589.857671	0.008141	
427589.859672	0.010624	
427589.861671	0.014379	
427589.863670	0.017443	
427589.867669	0.021581	
427589.869671	0.026517	
427589.871672	0.030738	
427589.875670	0.033353	
427589.877671	0.040532	
427589.879670	0.042492	
427589.881670	0.046034	
427589.883671	0.048320	
427589.885670	0.051472	
427589.887672	0.053914	
427589.891671	0.057106	
427589.893670	0.060553	
427589.895672	0.065193	
427589.897671	0.066336	
427589.899671	0.069636	
427589.901671	0.072256	
427589.903671	0.073974	
427589.905671	0.077727	
427589.907671	0.078933	
427589.909670	0.080899	
427589.913671	0.084740	
427589.915672	0.088414	
427589.917671	0.091406	
427589.919671	0.093773	
427589.921670	0.095971	
427589.923673	0.097529	
427589.927669	0.100043	
427589.929672	0.104092	
427589.931671	0.105202	
427589.935671	0.108230	
427589.937671	0.112795	
427589.939671	0.115871	
427589.941672	0.117581	
427589.943670	0.120252	
427589.945672	0.122642	
427589.949671	0.126648	
427589.953670	0.133184	
427589.955671	0.134936	
427589.957670	0.141172	
427589.959671	0.143230	
427589.961671	0.146954	
427589.965669	0.150073	
427589.967671	0.155566	
427589.969671	0.158698	
427589.973671	0.161902	
427589.975671	0.168025	
427589.977671	0.172352	
427589.979671	0.174663	
427589.981671	0.177093	
427589.983671	0.180518	
427589.985670	0.181607	
427589.989671	0.184139	
427589.991671	0.188617	
427589.993671	0.191549	
427589.995672	0.193669	
427589.997671	0.195348	
427589.999670	0.196721	
427590.001671	0.198182	
427590.003671	0.199653	
427590.005671	0.200491	
427590.009670	0.201372	
427590.011672	0.203714	
427590.013671	0.204775	
427590.015671	0.205444	
427590.017671	0.206245	
427590.019671	0.205735	
427590.021670	0.205925	
427590.025668	0.206247	
427590.027671	0.205371	
427590.029670	0.204050	
427590.031671	0.203591	
427590.033672	0.203349	
427590.035671	0.202453	
427590.037671	0.201027	
427590.039671	0.200596	
427590.041670	0.198617	
427590.045669	0.198636	
427590.047671	0.195383	
427590.051671	0.194333	
427590.053671	0.192134	
427590.055671	0.191671	
427590.057671	0.190985	
427590.059671	0.189297	
427590.063669	0.190209	
427590.065671	0.187031	
427590.067671	0.186867	
427590.071671	0.185109	
427590.073671	0.185776	
427590.075671	0.186301	
427590.077671	0.185599	
427590.079671	0.185699	
427590.081671	0.185337	
427590.085676	0.184796	
427590.089677	0.184763	
427590.091677	0.185075	
427590.093677	0.186396	
427590.095677	0.187272	
427590.097677	0.185784	
427590.101675	0.186880	
427590.103677	0.185834	
427590.105677	0.187079	
427590.109676	0.187371	
427590.111677	0.188391	
427590.113678	0.188286	
427590.115678	0.188536	
427590.117676	0.188105	
427590.119675	0.187506	
427590.123677	0.188134	
427590.127676	0.184280	
427590.129677	0.185098	
427590.131678	0.183477	
427590.133677	0.183502	
427590.135677	0.180141	
427590.139675	0.178641	
427590.141677	0.173656	
427590.143679	0.172413	
427590.147677	0.172053	
427590.149677	0.166735	
427590.151677	0.164453	
427590.153677	0.161244	
427590.155677	0.158679	
427590.157677	0.156034	
427590.159680	0.152052	
427590.163681	0.150113	
427590.165681	0.143356	
427590.167682	0.140517	
427590.169681	0.137870	
427590.171681	0.134443	
427590.173681	0.131715	
427590.175681	0.128428	
427590.177681	0.127315	
427590.179680	0.122705	
427590.183681	0.119589	
427590.185683	0.112944	
427590.187683	0.110293	
427590.189683	0.108752	
427590.191683	0.105745	
427590.193682	0.103730	
427590.195684	0.101908	
427590.199681	0.099527	
427590.201683	0.094518	
427590.203683	0.091265	
427590.205682	0.090205	
427590.207690	0.090421	
427590.209687	0.088660	
427590.211687	0.088123	
427590.213687	0.086550	
427590.215687	0.085582	
427590.219685	0.084492	
427590.223685	0.081834	
427590.225687	0.080528	
427590.227687	0.082093	
427590.229687	0.080310	
427590.231686	0.080499	
427590.233687	0.080015	
427590.237685	0.079145	
427590.239688	0.077393	
427590.241687	0.077654	
427590.245687	0.077074	
427590.247687	0.076850	
427590.249687	0.076722	
427590.251687	0.076258	
427590.253688	0.075157	
427590.255686	0.074739	
427590.259687	0.073746	
427590.263687	0.071760	
427590.265687	0.069493	
427590.267687	0.068894	
427590.269687	0.067179	
427590.271687	0.065035	
427590.275685	0.064020	
427590.277688	0.060310	
427590.279686	0.058068	
427590.283687	0.055963	
427590.285687	0.051195	
427590.287687	0.048995	
427590.289687	0.047462	
427590.291687	0.045340	
427590.293687	0.041937	
427590.295691	0.039981	
427590.299687	0.036243	
427590.301687	0.031773	
427590.303687	0.028205	
427590.305687	0.026023	
427590.307687	0.023718	
427590.309687	0.020365	
427590.311687	0.018527	
427590.313688	0.015334	
427590.315687	0.011688	
427590.319685	0.009590	
427590.321688	0.004542	
427590.323687	0.002318	
427590.325687	-0.000423	
427590.327687	-0.001280	
427590.329687	-0.004290	
427590.331687	-0.006225	
427590.333687	-0.008140	
427590.335687	-0.011669	
427590.339691	-0.013845	
427590.341692	-0.017813	
427590.343693	-0.016271	
427590.345693	-0.017629	
427590.347693	-0.019416	
427590.349693	-0.019682	
427590.351694	-0.021470	
427590.355690	-0.021590	
427590.357696	-0.023914	
427590.359699	-0.024646	
427590.361695	-0.025139	
427590.363707	-0.025215	
427590.365703	-0.025446	
427590.367703	-0.025915	
427590.369703	-0.027108	
427590.371703	-0.026698	
427590.373702	-0.026724	
427590.377706	-0.027994	
427590.381707	-0.028670	
427590.383707	-0.028199	
427590.385707	-0.029305	
427590.387707	-0.028915	
427590.389707	-0.029719	
427590.393705	-0.030912	
427590.395706	-0.032088	
427590.397707	-0.033579	
427590.401706	-0.033563	
427590.403707	-0.035985	
427590.405705	-0.036965	
427590.407707	-0.039133	
427590.409707	-0.040444	
427590.411707	-0.041525	
427590.413707	-0.044481	
427590.417709	-0.046684	
427590.419709	-0.051045	
427590.421709	-0.052289	
427590.423709	-0.055342	
427590.425709	-0.057267	
427590.427709	-0.059509	
427590.429709	-0.061734	
427590.431710	-0.064888	
427590.433709	-0.068093	
427590.437719	-0.071545	
427590.439721	-0.077367	
427590.441721	-0.079233	
427590.443720	-0.082457	
427590.445722	-0.084426	
427590.447722	-0.088146	
427590.449722	-0.091101	
427590.453719	-0.094309	
427590.455721	-0.101226	
427590.457723	-0.103610	
427590.459723	-0.106345	
427590.461728	-0.108040	
427590.463729	-0.110492	
427590.465731	-0.112896	
427590.467729	-0.115131	
427590.469728	-0.118565	
427590.471729	-0.119334	
427590.475737	-0.122584	
427590.477737	-0.126021	
427590.479737	-0.128229	
427590.481737	-0.128953	
427590.483737	-0.129615	
427590.487735	-0.134024	
427590.489736	-0.134260	
427590.491736	-0.135414	
427590.495737	-0.137030	
427590.497737	-0.138569	
427590.499737	-0.139019	
427590.501738	-0.139440	
427590.503737	-0.140619	
427590.505737	-0.139797	
427590.507737	-0.140085	
427590.509737	-0.141742	
427590.511737	-0.141393	
427590.515736	-0.142521	
427590.519736	-0.142814	
427590.521737	-0.144303	
427590.523737	-0.145000	
427590.525736	-0.146140	
427590.527737	-0.145629	
427590.531736	-0.145978	
427590.533738	-0.149386	
427590.535736	-0.151176	
427590.539736	-0.152253	
427590.541738	-0.153187	
427590.543736	-0.154324	
427590.545737	-0.156160	
427590.547737	-0.157859	
427590.549736	-0.159045	
427590.551743	-0.162756	
427590.557748	-0.166764	
427590.559755	-0.170260	
427590.561750	-0.171877	
427590.563752	-0.175027	
427590.565751	-0.177872	
427590.569749	-0.179474	
427590.571750	-0.186039	
427590.573751	-0.188786	
427590.577751	-0.191638	
427590.579752	-0.195582	
427590.581751	-0.198198	
427590.583751	-0.200139	
427590.585752	-0.203065	
427590.589748	-0.205147	
427590.591751	-0.210296	
427590.593751	-0.211963	
427590.595751	-0.212633	
427590.597758	-0.214001	
427590.599757	-0.215128	
427590.601757	-0.216945	
427590.603757	-0.218243	
427590.605757	-0.218892	
427590.609755	-0.218903	
427590.613755	-0.220001	
427590.615757	-0.220929	
427590.617757	-0.220669	
427590.619756	-0.220387	
427590.621757	-0.219698	
427590.623757	-0.219135	
427590.627755	-0.218847	
427590.629757	-0.217252	
427590.631757	-0.216620	
427590.635757	-0.214797	
427590.637757	-0.212252	
427590.639757	-0.210590	
427590.641757	-0.209590	
427590.643757	-0.207444	
427590.645757	-0.205234	
427590.649755	-0.204807	
427590.653757	-0.201088	
427590.655756	-0.197404	
427590.657757	-0.196068	
427590.659762	-0.194063	
427590.661759	-0.192493	
427590.665758	-0.190532	
427590.667759	-0.188533	
427590.669760	-0.188012	
427590.673759	-0.186568	
427590.675759	-0.183227	
427590.677758	-0.181861	
427590.679762	-0.181245	
427590.681759	-0.179376	
427590.683759	-0.177958	
427590.685759	-0.178124	
427590.689762	-0.178286	
427590.691763	-0.175923	
427590.693763	-0.174148	
427590.695763	-0.172830	
427590.697762	-0.171866	
427590.699763	-0.171155	
427590.701763	-0.170037	
427590.705760	-0.168800	
427590.707764	-0.167076	
427590.709762	-0.166266	
427590.711763	-0.163852	
427590.713764	-0.162378	
427590.715763	-0.160242	
427590.717763	-0.158788	
427590.719763	-0.158673	
427590.721763	-0.156085	
427590.725761	-0.153797	
427590.727763	-0.150957	
427590.729763	-0.149331	
427590.731763	-0.148446	
427590.733766	-0.144707	
427590.735769	-0.143466	
427590.737769	-0.140161	
427590.739769	-0.137023	
427590.741769	-0.135143	
427590.743769	-0.131763	
427590.747768	-0.129856	
427590.749770	-0.124703	
427590.751769	-0.120843	
427590.753770	-0.117236	
427590.755770	-0.114098	
427590.757772	-0.110789	
427590.759773	-0.107419	
427590.761773	-0.103482	
427590.763773	-0.099150	
427590.765773	-0.097287	
427590.769773	-0.093295	
427590.771772	-0.088116	
427590.773773	-0.083295	
427590.775773	-0.079739	
427590.777773	-0.076665	
427590.779773	-0.074471	
427590.781773	-0.072603	
427590.783773	-0.067288	
427590.785775	-0.065195	
427590.789777	-0.062861	
427590.791777	-0.059985	
427590.793778	-0.054929	
427590.795778	-0.050605	
427590.797777	-0.048123	
427590.799777	-0.046648	
427590.801777	-0.044883	
427590.803777	-0.041278	
427590.805778	-0.038381	
427590.809781	-0.035655	
427590.811783	-0.030428	
427590.813783	-0.027742	
427590.815783	-0.024078	
427590.817784	-0.019610	
427590.819783	-0.017249	
427590.821783	-0.014556	
427590.825781	-0.011805	
427590.827783	-0.004530	
427590.829782	-0.000587	
427590.831783	0.000539	
427590.833783	0.004337	
427590.835784	0.007380	
427590.837783	0.011064	
427590.839783	0.015469	
427590.841783	0.017394	
427590.845781	0.020609	
427590.849781	0.026261	
427590.851783	0.033061	
427590.853784	0.037075	
427590.855787	0.040608	
427590.857782	0.043863	
427590.859789	0.047730	
427590.863787	0.053205	
427590.865789	0.058544	
427590.867789	0.062548	
427590.871789	0.066436	
427590.873789	0.075964	
427590.875790	0.078524	
427590.877790	0.082765	
427590.879790	0.086273	
427590.881791	0.091290	
427590.885789	0.096568	
427590.889790	0.099637	
427590.891790	0.106708	
427590.893791	0.111200	
427590.895789	0.114208	
427590.897790	0.116376	
427590.901787	0.119344	
427590.903790	0.123212	
427590.905789	0.126131	
427590.909790	0.128150	
427590.911790	0.134101	
427590.913790	0.136678	
427590.915791	0.138551	
427590.917791	0.141574	
427590.919790	0.141989	
427590.923790	0.144337	
427590.925790	0.148348	
427590.927790	0.150944	
427590.929790	0.153559	
427590.931790	0.155203	
427590.933789	0.158131	
427590.935789	0.159746	
427590.937788	0.162395	
427590.939789	0.165193	
427590.943794	0.165560	
427590.947797	0.170246	
427590.949797	0.175446	
427590.951798	0.176770	
427590.953797	0.179503	
427590.955798	0.182122	
427590.959796	0.184690	
427590.961798	0.190249	
427590.963798	0.192015	
427590.967797	0.195716	
427590.969797	0.201204	
427590.971797	0.204838	
427590.973797	0.208448	
427590.975798	0.211190	
427590.977797	0.215638	
427590.979799	0.218739	
427590.983797	0.221146	
427590.985798	0.226710	
427590.987798	0.230819	
427590.989797	0.234692	
427590.991797	0.237727	
427590.993798	0.240349	
427590.995797	0.243424	
427590.997798	0.246506	
427590.999797	0.247918	
427591.003797	0.250482	
427591.005797	0.255154	
427591.007797	0.257344	
427591.009798	0.260175	
427591.011797	0.262277	
427591.013798	0.263140	
427591.015799	0.263853	
427591.019796	0.265487	
427591.021799	0.266775	
427591.023797	0.266844	
427591.027797	0.266757	
427591.029797	0.267873	
427591.031801	0.267236	
427591.033806	0.267560	
427591.035806	0.266157	
427591.039804	0.265519	
427591.041806	0.262405	
427591.043806	0.261877	
427591.045806	0.259896	
427591.047805	0.258388	
427591.049806	0.256343	
427591.051806	0.255328	
427591.053807	0.252021	
427591.055806	0.250407	
427591.059806	0.249175	
427591.063803	0.244219	
427591.065806	0.239059	
427591.067806	0.237526	
427591.069806	0.235253	
427591.071806	0.233309	
427591.073806	0.230899	
427591.077804	0.229992	
427591.079806	0.225101	
427591.081806	0.223710	
427591.085805	0.222849	
427591.087806	0.219925	
427591.089805	0.218734	
427591.091807	0.217882	
427591.093805	0.216987	
427591.095805	0.216009	
427591.099807	0.215505	
427591.103808	0.213448	
427591.105809	0.212437	
427591.107808	0.212091	
427591.109807	0.211765	
427591.111808	0.212094	
427591.115806	0.211672	
427591.117809	0.209543	
427591.119814	0.208335	
427591.123817	0.208772	
427591.125817	0.207270	
427591.127818	0.207905	
427591.129817	0.207250	
427591.131818	0.205557	
427591.133818	0.205344	
427591.135818	0.201745	
427591.139820	0.201820	
427591.141822	0.198732	
427591.143822	0.197599	
427591.145821	0.196285	
427591.147822	0.194087	
427591.149825	0.192674	
427591.151822	0.189449	
427591.153822	0.187845	
427591.155821	0.184096	
427591.159821	0.181186	
427591.161821	0.176615	
427591.163823	0.174636	
427591.165821	0.171519	
427591.167823	0.168488	
427591.169821	0.165212	
427591.171822	0.162630	
427591.173821	0.159148	
427591.175821	0.154782	
427591.179822	0.152896	
427591.181824	0.144911	
427591.183824	0.142703	
427591.185823	0.138987	
427591.187824	0.136566	
427591.189823	0.132304	
427591.191823	0.129499	
427591.195822	0.126751	
427591.197824	0.119303	
427591.199824	0.116662	
427591.201825	0.114149	
427591.203829	0.110128	
427591.235781	0.101339	
427591.237782	0.100909	
427591.241782	0.099405	
427591.243782	0.096766	
427591.245783	0.094103	
427591.247782	0.091543	
427591.249782	0.088325	
427591.251783	0.085311	
427591.255785	0.082431	
427591.257786	0.077013	
427591.259786	0.074111	
427591.261792	0.073384	
427591.263793	0.071497	
427591.265791	0.070031	
427591.267791	0.068390	
427591.269793	0.065650	
427591.271792	0.065350	
427591.275800	0.063077	
427591.279803	0.059940	
427591.281802	0.057151	
427591.283809	0.056044	
427591.285816	0.054689	
427591.287813	0.053871	
427591.291813	0.053906	
427591.293814	0.051865	
427591.295813	0.051606	
427591.299812	0.051112	
427591.301815	0.050531	
427591.303814	0.049881	
427591.305814	0.049933	
427591.307815	0.048926	
427591.311812	0.049350	
427591.313814	0.048629	
427591.315814	0.048382	
427591.317815	0.047905	
427591.319817	0.048086	
427591.321815	0.047907	
427591.323813	0.048301	
427591.325815	0.047049	
427591.327813	0.047567	
427591.331813	0.046960	
427591.335813	0.045176	
427591.337814	0.043200	
427591.339815	0.043227	
427591.341816	0.042597	
427591.343815	0.042409	
427591.345814	0.040825	
427591.349813	0.039669	
427591.351813	0.036259	
427591.353815	0.034672	
427591.357813	0.033590	
427591.359814	0.031656	
427591.361814	0.030516	
427591.363815	0.029107	
427591.365814	0.026538	
427591.367819	0.025602	
427591.371819	0.023005	
