time (s)	det(V)
5383.329113	-0.163866	
5383.331114	-0.167934	
5383.333112	-0.171507	
5383.337111	-0.175656	
5383.339114	-0.184624	
5383.341114	-0.188580	
5383.345112	-0.192315	
5383.347113	-0.198878	
5383.349114	-0.202718	
5383.351113	-0.206096	
5383.353113	-0.209932	
5383.355114	-0.213030	
5383.357121	-0.217136	
5383.361116	-0.220709	
5383.363115	-0.226722	
5383.365115	-0.229397	
5383.367115	-0.232061	
5383.369116	-0.235335	
5383.371116	-0.238700	
5383.373115	-0.240875	
5383.375115	-0.244451	
5383.377116	-0.247316	
5383.381120	-0.250929	
5383.383122	-0.256551	
5383.385122	-0.259621	
5383.387121	-0.262676	
5383.389121	-0.265179	
5383.391122	-0.268210	
5383.393121	-0.271577	
5383.397120	-0.273948	
5383.399122	-0.281190	
5383.401122	-0.283794	
5383.405122	-0.287674	
5383.407122	-0.292246	
5383.409122	-0.295112	
5383.411129	-0.297742	
5383.413129	-0.300555	
5383.415128	-0.304079	
5383.417127	-0.307081	
5383.421125	-0.310845	
5383.423126	-0.316159	
5383.425128	-0.319199	
5383.427127	-0.321391	
5383.429128	-0.324113	
5383.431128	-0.327412	
5383.433127	-0.329808	
5383.437125	-0.332274	
5383.441125	-0.338337	
5383.443128	-0.343152	
5383.445127	-0.344403	
5383.447127	-0.346538	
5383.449127	-0.348293	
5383.451128	-0.349758	
5383.455125	-0.351322	
5383.457128	-0.354611	
5383.459127	-0.356083	
5383.463127	-0.356177	
5383.465127	-0.356480	
5383.467128	-0.356023	
5383.469128	-0.357474	
5383.471127	-0.356823	
5383.473127	-0.355880	
5383.477127	-0.356655	
5383.481127	-0.354433	
5383.483128	-0.350512	
5383.485127	-0.348998	
5383.487128	-0.346423	
5383.489127	-0.343347	
5383.493125	-0.340198	
5383.495128	-0.332559	
5383.497127	-0.328293	
5383.501127	-0.323540	
5383.503128	-0.312086	
5383.505128	-0.304643	
5383.507128	-0.298841	
5383.509128	-0.291867	
5383.511131	-0.283991	
5383.515128	-0.278291	
5383.517130	-0.262986	
5383.519130	-0.256320	
5383.521133	-0.248681	
5383.523132	-0.241292	
5383.525133	-0.234140	
5383.527131	-0.226406	
5383.529132	-0.220034	
5383.531131	-0.212771	
5383.533131	-0.206865	
5383.537137	-0.201234	
5383.539137	-0.187918	
5383.541138	-0.181258	
5383.543137	-0.174077	
5383.545137	-0.167218	
5383.547136	-0.161533	
5383.549137	-0.154286	
5383.551136	-0.146897	
5383.553136	-0.141430	
5383.557137	-0.133809	
5383.559138	-0.119508	
5383.561138	-0.110897	
5383.563138	-0.103356	
5383.565138	-0.094817	
5383.567137	-0.087211	
5383.569137	-0.081209	
5383.573136	-0.073671	
5383.575137	-0.061323	
5383.577138	-0.054991	
5383.579137	-0.049286	
5383.581137	-0.043640	
5383.583138	-0.037931	
5383.585138	-0.034472	
5383.587136	-0.030913	
5383.589138	-0.026783	
5383.593136	-0.023978	
5383.597136	-0.018439	
5383.599138	-0.014654	
5383.601138	-0.011565	
5383.603139	-0.009881	
5383.605138	-0.007179	
5383.607137	-0.004635	
5383.611137	-0.001608	
5383.613140	0.004257	
5383.615140	0.007814	
5383.619139	0.012568	
5383.621141	0.022938	
5383.623140	0.027764	
5383.625139	0.032834	
5383.627140	0.039381	
5383.629139	0.045747	
5383.633141	0.049930	
5383.637142	0.062524	
5383.639142	0.076476	
5383.641144	0.083462	
5383.643143	0.090185	
5383.645144	0.097530	
5383.649142	0.103923	
5383.651146	0.116710	
5383.653145	0.122944	
5383.657144	0.130007	
5383.659144	0.144496	
5383.661144	0.152317	
5383.663144	0.159482	
5383.665144	0.166616	
5383.667144	0.175064	
5383.669143	0.181728	
5383.673143	0.189321	
5383.675144	0.205589	
5383.677144	0.214951	
5383.679144	0.224013	
5383.681144	0.232152	
5383.683144	0.239752	
5383.685146	0.248333	
5383.689142	0.256577	
5383.691144	0.271278	
5383.693144	0.278381	
5383.695144	0.285842	
5383.697143	0.292328	
5383.699145	0.298262	
5383.701144	0.304381	
5383.703147	0.308490	
5383.705145	0.313823	
5383.709142	0.318713	
5383.713142	0.324510	
5383.715144	0.329256	
5383.717144	0.330999	
5383.719145	0.332178	
5383.721144	0.333190	
5383.723144	0.333585	
5383.727142	0.333598	
5383.729144	0.333109	
5383.731144	0.332005	
5383.735143	0.330908	
5383.737143	0.328510	
5383.739144	0.327500	
5383.741143	0.325827	
5383.743144	0.323631	
5383.745144	0.322003	
5383.749142	0.319182	
5383.753144	0.314368	
5383.755144	0.310995	
5383.757145	0.308589	
5383.759144	0.306968	
5383.761144	0.305287	
5383.765143	0.303809	
5383.767144	0.300770	
5383.769144	0.299171	
5383.773143	0.298456	
5383.775144	0.298585	
5383.779142	0.299171	
5383.781144	0.299142	
5383.783144	0.299795	
5383.787155	0.300030	
5383.817006	0.338248	
5383.819007	0.329912	
5383.821007	0.324573	
5383.823006	0.321922	
5383.825006	0.319327	
5383.827007	0.316923	
5383.829006	0.314255	
5383.831010	0.309249	
5383.835009	0.302756	
5383.837010	0.289511	
5383.839009	0.284080	
5383.841008	0.279305	
5383.843009	0.272853	
5383.845009	0.267387	
5383.849007	0.261195	
5383.851009	0.246418	
5383.853009	0.239337	
5383.857009	0.233256	
5383.859008	0.222776	
5383.861011	0.217703	
5383.863008	0.211377	
5383.865009	0.205678	
5383.867009	0.200788	
5383.871008	0.194649	
5383.875009	0.186523	
5383.877009	0.179496	
5383.879010	0.176110	
5383.881009	0.172332	
5383.883009	0.169315	
5383.887009	0.166832	
5383.889009	0.161453	
5383.891009	0.159389	
5383.895009	0.156839	
5383.897009	0.154542	
5383.899008	0.153178	
5383.901010	0.151913	
5383.903009	0.150068	
5383.905009	0.149677	
5383.909009	0.147714	
5383.913011	0.145856	
5383.915012	0.144593	
5383.917012	0.143917	
5383.919011	0.142686	
5383.921010	0.141622	
5383.925009	0.141140	
5383.927011	0.138407	
5383.929011	0.137884	
5383.933010	0.135856	
5383.935011	0.134374	
5383.937010	0.132874	
5383.939011	0.131451	
5383.941011	0.129436	
5383.943011	0.128024	
5383.945015	0.126227	
5383.949012	0.123227	
5383.951013	0.118574	
5383.953013	0.115466	
5383.955013	0.113914	
5383.957013	0.111185	
5383.959014	0.107685	
5383.961013	0.105819	
5383.963012	0.102957	
5383.965013	0.099052	
5383.969020	0.096165	
5383.971020	0.089815	
5383.973019	0.087585	
5383.975019	0.084977	
5383.977019	0.082382	
5383.979019	0.080363	
5383.981019	0.077256	
5383.983019	0.075054	
5383.985019	0.071665	
5383.987024	0.068501	
5383.991025	0.066840	
5383.993025	0.062043	
5383.995025	0.061491	
5383.997026	0.058959	
5383.999025	0.056976	
5384.001024	0.054837	
5384.005023	0.052874	
5384.007025	0.048679	
5384.009026	0.046625	
5384.013024	0.045742	
5384.015025	0.043483	
5384.017025	0.042427	
5384.019025	0.041393	
5384.021025	0.039901	
5384.023024	0.039994	
5384.027025	0.038589	
5384.029025	0.038279	
5384.031025	0.037673	
5384.033027	0.037680	
5384.035031	0.038704	
5384.037037	0.038085	
5384.039035	0.038354	
5384.041035	0.038951	
5384.043035	0.039004	
5384.047033	0.039301	
5384.051035	0.038486	
5384.053035	0.039493	
5384.055035	0.040622	
5384.057035	0.040459	
5384.059035	0.039934	
5384.063033	0.041190	
5384.065034	0.039299	
5384.067034	0.038821	
5384.071034	0.038258	
5384.073033	0.038210	
5384.075034	0.037561	
5384.077035	0.037250	
5384.079033	0.036961	
5384.081035	0.036248	
5384.083034	0.035210	
5384.087032	0.033749	
5384.089035	0.031752	
5384.091035	0.031795	
5384.093034	0.030681	
5384.095034	0.030582	
5384.097034	0.029130	
5384.099035	0.027696	
5384.101034	0.027022	
5384.103034	0.024469	
5384.107040	0.022818	
5384.109040	0.019576	
5384.111041	0.019412	
5384.113040	0.018012	
5384.115041	0.016020	
5384.117041	0.014124	
5384.119041	0.012198	
5384.123038	0.010097	
5384.127038	0.005740	
5384.129041	0.002875	
5384.131043	0.001762	
5384.133043	0.000019	
5384.135042	-0.001960	
5384.137042	-0.004543	
5384.141040	-0.004268	
5384.143043	-0.007473	
5384.145043	-0.007514	
5384.149041	-0.009004	
5384.151041	-0.009324	
5384.153042	-0.010656	
5384.155042	-0.010525	
5384.157042	-0.011150	
5384.159042	-0.011456	
5384.161042	-0.011606	
5384.165040	-0.012259	
5384.167042	-0.012661	
5384.169043	-0.012446	
5384.171043	-0.012700	
5384.173041	-0.012838	
5384.175043	-0.012966	
5384.177043	-0.012442	
5384.179042	-0.011971	
5384.181043	-0.013251	
5384.183048	-0.013272	
5384.187043	-0.014418	
5384.189043	-0.013542	
5384.191043	-0.013507	
5384.193043	-0.013223	
5384.195043	-0.012763	
5384.197043	-0.013242	
5384.201040	-0.013149	
5384.203043	-0.015073	
5384.205042	-0.015490	
5384.207041	-0.015093	
5384.209050	-0.016291	
5384.211046	-0.015121	
5384.213047	-0.015667	
5384.215045	-0.017248	
5384.217046	-0.018326	
5384.221044	-0.018782	
5384.223047	-0.023315	
5384.227048	-0.025090	
5384.229047	-0.026949	
5384.231053	-0.030007	
5384.233054	-0.031874	
5384.235055	-0.033988	
5384.239053	-0.037877	
5384.241055	-0.043752	
5384.243054	-0.046684	
5384.247054	-0.048512	
5384.249055	-0.054572	
5384.251054	-0.057435	
5384.253055	-0.061164	
5384.255054	-0.063956	
5384.257055	-0.066777	
5384.259055	-0.070625	
5384.263053	-0.073596	
5384.265055	-0.079577	
5384.267055	-0.082295	
5384.269055	-0.085162	
5384.271055	-0.088166	
5384.273055	-0.091066	
5384.275055	-0.094463	
5384.277053	-0.096597	
5384.279056	-0.099610	
5384.283054	-0.102620	
5384.285054	-0.108250	
5384.287054	-0.110723	
5384.289054	-0.112115	
5384.291055	-0.114026	
5384.293055	-0.116511	
5384.295055	-0.117794	
5384.299053	-0.119951	
5384.301054	-0.123749	
5384.303054	-0.126153	
5384.305054	-0.127128	
5384.307054	-0.128208	
5384.309055	-0.128971	
5384.311055	-0.129306	
5384.313054	-0.130244	
5384.315054	-0.131559	
5384.319052	-0.131802	
5384.323052	-0.135517	
5384.325056	-0.136845	
5384.327055	-0.137321	
5384.329055	-0.137470	
5384.331057	-0.139615	
5384.333058	-0.141061	
5384.337056	-0.142175	
5384.339057	-0.146939	
5384.341059	-0.149130	
5384.345058	-0.151427	
5384.347059	-0.155870	
5384.349058	-0.158541	
5384.351059	-0.161242	
5384.353059	-0.166095	
5384.355057	-0.169452	
5384.359056	-0.173660	
5384.363058	-0.182810	
5384.365060	-0.191926	
5384.367058	-0.196976	
5384.369059	-0.202402	
5384.371059	-0.209092	
5384.375057	-0.213731	
5384.377057	-0.227029	
5384.379058	-0.233380	
5384.383058	-0.239991	
5384.385059	-0.251725	
5384.387057	-0.258632	
5384.389058	-0.264878	
5384.391060	-0.271157	
5384.393059	-0.277498	
5384.395062	-0.282792	
5384.399069	-0.289545	
5384.401069	-0.299508	
5384.403069	-0.304760	
5384.405070	-0.308618	
5384.407068	-0.311917	
5384.409069	-0.316021	
5384.411069	-0.318629	
5384.413068	-0.321367	
5384.415071	-0.324340	
5384.419067	-0.326410	
5384.421068	-0.329980	
5384.423069	-0.329566	
5384.425069	-0.330036	
5384.427068	-0.329804	
5384.429068	-0.329774	
5384.431073	-0.329031	
5384.433075	-0.328190	
5384.435076	-0.327488	
5384.437076	-0.326616	
5384.441077	-0.324563	
5384.443077	-0.319820	
5384.447074	-0.312665	
5384.449076	-0.309116	
5384.451076	-0.305621	
5384.455074	-0.301973	
5384.457076	-0.293879	
5384.459077	-0.289996	
5384.463076	-0.284499	
5384.465078	-0.275780	
5384.467077	-0.270606	
5384.469075	-0.267363	
5384.471077	-0.264467	
5384.475074	-0.259960	
5384.479074	-0.255907	
5384.481076	-0.251878	
5384.483076	-0.249947	
5384.485076	-0.248923	
5384.487077	-0.249090	
5384.489076	-0.248966	
5384.493074	-0.249567	
5384.495077	-0.250757	
5384.497075	-0.252153	
5384.501076	-0.253334	
5384.503076	-0.254516	
5384.505077	-0.254916	
5384.507077	-0.255524	
5384.509077	-0.255451	
5384.511076	-0.254794	
5384.515082	-0.254434	
5384.519082	-0.253187	
5384.521083	-0.248607	
5384.523083	-0.246080	
5384.525082	-0.242867	
5384.527082	-0.239884	
5384.531080	-0.235301	
5384.533081	-0.227867	
5384.535083	-0.223340	
5384.539082	-0.218902	
5384.541083	-0.207020	
5384.543081	-0.200542	
5384.545082	-0.194028	
5384.547083	-0.187477	
5384.549083	-0.180972	
5384.553085	-0.174347	
5384.557086	-0.159377	
5384.559086	-0.142887	
5384.561086	-0.133098	
5384.563087	-0.123617	
5384.565087	-0.115088	
5384.569084	-0.104607	
5384.571087	-0.086762	
5384.573086	-0.076246	
5384.577087	-0.066353	
5384.579086	-0.044953	
5384.581087	-0.034842	
5384.583086	-0.025852	
5384.585086	-0.016685	
5384.587086	-0.007249	
5384.591097	0.000725	
5384.595098	0.017036	
5384.597098	0.033003	
5384.599098	0.038570	
5384.601097	0.045600	
5384.603098	0.050257	
5384.607096	0.055563	
5384.609099	0.064539	
5384.611099	0.069547	
5384.615098	0.073401	
5384.617098	0.081736	
5384.619098	0.085234	
5384.621099	0.088665	
5384.623098	0.092453	
5384.625098	0.095198	
5384.627100	0.098413	
5384.631098	0.102036	
5384.633102	0.107501	
5384.635100	0.111325	
5384.637099	0.113757	
5384.639098	0.117228	
5384.641099	0.120004	
5384.643099	0.122630	
5384.645099	0.127114	
5384.647097	0.129434	
5384.649099	0.132132	
5384.653100	0.136175	
5384.655099	0.143334	
5384.657099	0.148322	
5384.659099	0.153097	
5384.661099	0.158117	
5384.663099	0.163656	
5384.667097	0.169229	
5384.669099	0.180983	
5384.671099	0.187310	
5384.675099	0.195237	
5384.677099	0.212446	
5384.679099	0.221709	
5384.681099	0.229971	
5384.683100	0.238900	
5384.687097	0.247938	
5384.691097	0.265700	
5384.693099	0.284037	
5384.695099	0.293440	
5384.697100	0.302413	
5384.699101	0.310615	
5384.701101	0.318622	
5384.705099	0.325341	
5384.707100	0.339021	
5384.709101	0.344269	
5384.713101	0.350563	
5384.715101	0.361249	
5384.717100	0.366223	
5384.719108	0.369698	
5384.721109	0.372737	
5384.723111	0.377061	
5384.725111	0.378939	
5384.729111	0.381636	
5384.731111	0.385568	
5384.733111	0.387782	
5384.735111	0.389844	
5384.737111	0.389822	
5384.739111	0.390437	
5384.741111	0.391241	
5384.743111	0.390905	
5384.745111	0.390143	
5384.747111	0.389727	
5384.751111	0.388037	
5384.753111	0.384826	
5384.755111	0.383278	
5384.757111	0.380841	
5384.787043	0.360974	
5384.789046	0.357477	
5384.793045	0.353493	
5384.795046	0.349545	
5384.797045	0.345260	
5384.799049	0.338624	
5384.801050	0.331640	
5384.803050	0.325491	
5384.807051	0.319409	
5384.809052	0.309937	
5384.811051	0.305986	
5384.813055	0.301553	
5384.815054	0.296111	
5384.817053	0.291347	
5384.819054	0.285033	
5384.821054	0.280638	
5384.823054	0.277211	
5384.827053	0.272944	
5384.831054	0.265891	
5384.833054	0.258014	
5384.835053	0.255654	
5384.837055	0.251415	
5384.839053	0.249370	
5384.843051	0.246758	
5384.845053	0.241203	
5384.847054	0.238184	
5384.851053	0.235479	
5384.853053	0.230825	
5384.855054	0.229363	
5384.857053	0.227243	
5384.859053	0.223759	
5384.861053	0.221803	
5384.865053	0.218942	
5384.869053	0.213440	
5384.871053	0.207994	
5384.873053	0.205056	
5384.875053	0.202371	
5384.877053	0.198738	
5384.881052	0.196364	
5384.883053	0.188934	
5384.885054	0.185875	
5384.889059	0.181486	
5384.891060	0.175180	
5384.893059	0.171963	
5384.895059	0.169288	
5384.897059	0.164862	
5384.899060	0.162107	
5384.903058	0.157658	
5384.907059	0.149358	
5384.909060	0.142299	
5384.911058	0.138749	
5384.913059	0.134324	
5384.915060	0.130750	
5384.919057	0.127154	
5384.921060	0.117831	
5384.923059	0.113906	
5384.927059	0.110552	
5384.929060	0.105019	
5384.931061	0.101556	
5384.933059	0.097594	
5384.935059	0.095113	
5384.937059	0.091932	
5384.941059	0.088642	
5384.945059	0.083066	
5384.947060	0.079546	
5384.949059	0.077469	
5384.951060	0.076082	
5384.953059	0.072827	
5384.957057	0.071690	
5384.959060	0.066934	
5384.961059	0.065950	
5384.965059	0.064169	
5384.967060	0.061720	
5384.969059	0.060198	
5384.971059	0.058498	
5384.973064	0.057968	
5384.975068	0.056334	
5384.977072	0.054743	
5384.981073	0.053804	
5384.983073	0.052318	
5384.985073	0.052064	
5384.987073	0.050920	
5384.989073	0.051128	
5384.991074	0.050814	
5384.993073	0.049890	
5384.995075	0.050877	
5384.997073	0.049482	
5385.001072	0.048822	
5385.003073	0.048565	
5385.005074	0.048955	
5385.007074	0.049261	
5385.009072	0.049116	
5385.011073	0.048779	
5385.013074	0.048922	
5385.015074	0.048977	
5385.017073	0.047337	
5385.021073	0.046948	
5385.023073	0.046070	
5385.025074	0.045387	
5385.027073	0.045055	
5385.029074	0.044863	
5385.031073	0.043953	
5385.033073	0.043202	
5385.037070	0.042803	
5385.039072	0.039849	
5385.041072	0.038939	
5385.043072	0.037696	
5385.045074	0.038600	
5385.047072	0.037886	
5385.049073	0.037226	
5385.051073	0.036655	
5385.053073	0.035834	
5385.057071	0.034792	
5385.061070	0.032887	
5385.063074	0.032027	
5385.065077	0.031687	
5385.067077	0.031774	
5385.069075	0.030494	
5385.071076	0.029664	
5385.075074	0.029055	
5385.077076	0.026684	
5385.079076	0.026116	
5385.083076	0.024994	
5385.085076	0.024353	
5385.087077	0.023024	
5385.089079	0.022232	
5385.091077	0.021665	
5385.093075	0.020616	
5385.095077	0.019928	
5385.099083	0.018629	
5385.101083	0.017462	
5385.103083	0.017277	
5385.105083	0.017163	
5385.107084	0.017219	
5385.109083	0.016484	
5385.111082	0.016598	
5385.113083	0.017484	
5385.115082	0.015479	
5385.119081	0.015967	
5385.121084	0.015458	
5385.123083	0.016623	
5385.125082	0.016704	
5385.127082	0.017139	
5385.129082	0.017522	
5385.131083	0.017449	
5385.135080	0.017631	
5385.137082	0.016730	
5385.139081	0.017091	
5385.141082	0.016963	
5385.143082	0.017265	
5385.145083	0.018288	
5385.147083	0.018571	
5385.149083	0.017978	
5385.151081	0.017857	
5385.155081	0.018530	
5385.159080	0.017223	
5385.161083	0.017945	
5385.163084	0.018991	
5385.165083	0.018260	
5385.167085	0.019144	
5385.169084	0.018384	
5385.173082	0.018695	
5385.175085	0.017317	
5385.177085	0.017598	
5385.181084	0.018232	
5385.183085	0.017831	
5385.185085	0.018749	
5385.187083	0.017235	
5385.189085	0.017296	
5385.191084	0.016957	
5385.195084	0.016025	
5385.199084	0.015004	
5385.201084	0.014360	
5385.203085	0.013140	
5385.205083	0.012674	
5385.207084	0.012062	
5385.211083	0.011149	
5385.213086	0.009339	
5385.215085	0.008015	
5385.219084	0.007972	
5385.221085	0.006018	
5385.223085	0.006764	
5385.225084	0.005380	
5385.227085	0.004429	
5385.229085	0.005018	
5385.231087	0.003074	
5385.235083	0.002452	
5385.237085	0.000070	
5385.239085	0.000461	
5385.241085	-0.000009	
5385.243085	-0.000349	
5385.245084	-0.001266	
5385.247085	-0.001751	
5385.249084	-0.002473	
5385.251085	-0.004197	
5385.253087	-0.004943	
5385.257085	-0.004856	
5385.259085	-0.006304	
5385.261085	-0.005893	
5385.263087	-0.006340	
5385.265085	-0.006785	
5385.267083	-0.006895	
5385.271083	-0.007659	
5385.273085	-0.009168	
5385.275083	-0.008940	
5385.279084	-0.008693	
5385.281085	-0.008221	
5385.283085	-0.008299	
5385.285083	-0.008068	
5385.287085	-0.008900	
5385.289083	-0.008363	
5385.293084	-0.008516	
5385.295084	-0.008736	
5385.297085	-0.008600	
5385.299088	-0.009077	
5385.301085	-0.008763	
5385.303083	-0.009080	
5385.305084	-0.009939	
5385.307085	-0.009735	
5385.309084	-0.010480	
5385.311088	-0.011756	
5385.315085	-0.011510	
5385.317084	-0.013712	
5385.319085	-0.013804	
5385.321084	-0.015100	
5385.323085	-0.015723	
5385.325085	-0.017008	
5385.327085	-0.018170	
5385.329084	-0.018320	
5385.331087	-0.020299	
5385.335085	-0.021898	
5385.337085	-0.024862	
5385.339085	-0.025537	
5385.341085	-0.026995	
5385.343084	-0.027863	
5385.345085	-0.029547	
5385.347084	-0.031332	
5385.349084	-0.033095	
5385.351084	-0.035567	
5385.353093	-0.038666	
5385.357095	-0.040798	
5385.359096	-0.045295	
5385.361096	-0.047141	
5385.363099	-0.049358	
5385.365101	-0.052515	
5385.367100	-0.055671	
5385.369100	-0.058557	
5385.371099	-0.061982	
5385.375101	-0.065388	
5385.377101	-0.071924	
5385.379100	-0.074437	
5385.381107	-0.077602	
5385.383106	-0.080369	
5385.385107	-0.083283	
5385.387107	-0.087311	
5385.389107	-0.089981	
5385.391107	-0.092559	
5385.395110	-0.096639	
5385.399110	-0.102082	
5385.401111	-0.107235	
5385.403109	-0.110432	
5385.405109	-0.112928	
5385.407111	-0.115763	
5385.411108	-0.118519	
5385.413111	-0.124058	
5385.415110	-0.127208	
5385.419110	-0.129712	
5385.421111	-0.134322	
5385.423110	-0.136666	
5385.425112	-0.139295	
5385.427111	-0.142053	
5385.429111	-0.143839	
5385.431116	-0.146572	
5385.435120	-0.149680	
5385.437119	-0.154940	
5385.439120	-0.156129	
5385.441118	-0.158502	
5385.443118	-0.161239	
5385.445118	-0.162925	
5385.447118	-0.165704	
5385.449119	-0.168484	
5385.451119	-0.171447	
5385.455126	-0.174959	
5385.457128	-0.180811	
5385.459131	-0.184166	
5385.461128	-0.186788	
5385.463128	-0.189931	
5385.465129	-0.194588	
5385.467130	-0.197892	
5385.471127	-0.202492	
5385.473129	-0.212442	
5385.475128	-0.217397	
5385.477128	-0.222575	
5385.479133	-0.226662	
5385.481131	-0.231833	
5385.483131	-0.237352	
5385.485131	-0.242718	
5385.487130	-0.249037	
5385.491129	-0.254697	
5385.495129	-0.273227	
5385.497130	-0.278961	
5385.499130	-0.285042	
5385.501131	-0.291144	
5385.503131	-0.297595	
