time (s)	det(V)
6534.240478	0.197227	
6534.242478	0.200995	
6534.244477	0.205233	
6534.246478	0.207611	
6534.248476	0.210349	
6534.250478	0.211526	
6534.252477	0.213546	
6534.254477	0.214154	
6534.258476	0.212168	
6534.262478	0.208851	
6534.264478	0.205116	
6534.266477	0.201858	
6534.268478	0.198072	
6534.270477	0.193044	
6534.274475	0.188849	
6534.276478	0.178733	
6534.278478	0.172850	
6534.282477	0.167520	
6534.284477	0.158001	
6534.286477	0.153043	
6534.288477	0.147490	
6534.290478	0.142561	
6534.292478	0.137838	
6534.296476	0.132848	
6534.300477	0.125294	
6534.302477	0.120533	
6534.304478	0.118245	
6534.306478	0.117272	
6534.308478	0.116092	
6534.312475	0.115550	
6534.314478	0.116920	
6534.316477	0.117886	
6534.320479	0.120755	
6534.322480	0.127417	
6534.324480	0.131573	
6534.326479	0.136181	
6534.328479	0.139875	
6534.330479	0.145860	
6534.332479	0.149868	
6534.336478	0.156242	
6534.338479	0.167297	
6534.340479	0.174774	
6534.342480	0.180462	
6534.344479	0.186013	
6534.346479	0.192504	
6534.348479	0.198478	
6534.350480	0.203740	
6534.352479	0.208980	
6534.356478	0.213161	
6534.358478	0.222314	
6534.360480	0.225322	
6534.362479	0.229321	
6534.364480	0.232309	
6534.366479	0.233658	
6534.368479	0.236450	
6534.372477	0.238100	
6534.376478	0.237173	
6534.378479	0.233843	
6534.380480	0.233849	
6534.382480	0.230759	
6534.384479	0.227922	
6534.386479	0.224050	
6534.390479	0.219133	
6534.392480	0.208867	
6534.394479	0.202712	
6534.398479	0.196048	
6534.428412	0.118120	
6534.430414	0.110612	
6534.434414	0.107342	
6534.436417	0.098323	
6534.438413	0.092027	
6534.440414	0.085823	
6534.442414	0.082048	
6534.444414	0.078234	
6534.448414	0.074781	
6534.452414	0.067416	
6534.454414	0.068323	
6534.456414	0.068512	
6534.458414	0.069650	
6534.460414	0.067817	
6534.464413	0.069063	
6534.466414	0.073072	
6534.468414	0.076999	
6534.472413	0.080238	
6534.474413	0.088178	
6534.476414	0.092394	
6534.478415	0.096337	
6534.480415	0.100403	
6534.482416	0.105188	
6534.484422	0.108612	
6534.488428	0.114296	
6534.490429	0.123285	
6534.492428	0.127241	
6534.494427	0.130614	
6534.496428	0.135161	
6534.498429	0.138983	
6534.500428	0.142685	
6534.502428	0.145907	
6534.504428	0.147030	
6534.508428	0.148137	
6534.510428	0.151099	
6534.512428	0.151169	
6534.514428	0.151844	
6534.516427	0.150566	
6534.518428	0.150455	
6534.520428	0.148805	
6534.522428	0.145955	
6534.524428	0.142172	
6534.528427	0.138150	
6534.530428	0.131231	
6534.532428	0.126499	
6534.534426	0.122529	
6534.536428	0.117238	
6534.538429	0.110855	
6534.540428	0.105777	
6534.544426	0.099294	
6534.546427	0.085522	
6534.548428	0.078622	
6534.552428	0.072008	
6534.554428	0.059525	
6534.556428	0.052581	
6534.558428	0.046688	
6534.560428	0.039370	
6534.562428	0.034164	
6534.564429	0.027284	
6534.568437	0.021025	
6534.570438	0.010910	
6534.572438	0.006113	
6534.574438	0.002613	
6534.576441	-0.002645	
6534.578438	-0.006537	
6534.580438	-0.008146	
6534.584436	-0.010542	
6534.588436	-0.014566	
6534.590437	-0.016423	
6534.592437	-0.015022	
6534.594438	-0.015284	
6534.596438	-0.013918	
6534.598437	-0.012543	
6534.600438	-0.010272	
6534.602439	-0.008197	
6534.604445	-0.005923	
6534.608442	-0.003044	
6534.610442	0.002924	
6534.612442	0.007162	
6534.614442	0.012024	
6534.616442	0.014719	
6534.618441	0.020519	
6534.620444	0.022771	
6534.622442	0.026616	
6534.624442	0.029531	
6534.628440	0.032551	
6534.630442	0.038586	
6534.632442	0.041182	
6534.634442	0.043351	
6534.636443	0.046455	
6534.638441	0.047215	
6534.640442	0.049193	
6534.642441	0.049764	
6534.644442	0.049187	
6534.648446	0.049643	
6534.650448	0.048081	
6534.652448	0.048086	
6534.654449	0.046725	
6534.656452	0.045225	
6534.658454	0.042006	
6534.660454	0.039047	
6534.664452	0.036420	
6534.668452	0.026688	
6534.670453	0.019056	
6534.672454	0.014420	
6534.674453	0.009786	
6534.676452	0.003253	
6534.678454	-0.004043	
6534.682451	-0.008215	
6534.684453	-0.020593	
6534.686453	-0.026599	
6534.690452	-0.033168	
6534.692455	-0.044635	
6534.694454	-0.050249	
6534.696454	-0.056048	
6534.698454	-0.061508	
6534.700452	-0.066270	
6534.702453	-0.071237	
6534.706455	-0.076414	
6534.708454	-0.084513	
6534.710454	-0.088802	
6534.712453	-0.090484	
6534.714454	-0.093579	
6534.716454	-0.096043	
6534.718454	-0.097062	
6534.720454	-0.098168	
6534.722453	-0.099344	
6534.726454	-0.099567	
6534.728454	-0.099037	
6534.730454	-0.096902	
6534.732453	-0.095056	
6534.734454	-0.092337	
6534.736453	-0.089772	
6534.740452	-0.084323	
6534.742454	-0.081800	
6534.744453	-0.079318	
6534.746453	-0.075359	
6534.750454	-0.072342	
6534.752454	-0.064403	
6534.754452	-0.061028	
6534.756453	-0.058289	
6534.758454	-0.055207	
6534.762452	-0.052854	
6534.764454	-0.048069	
6534.766453	-0.047002	
6534.768452	-0.044444	
6534.770460	-0.042915	
6534.772470	-0.041700	
6534.774470	-0.040167	
6534.776469	-0.040456	
6534.778469	-0.040671	
6534.782468	-0.040970	
6534.784469	-0.043689	
6534.788470	-0.044615	
6534.790469	-0.048439	
6534.792469	-0.050870	
6534.794470	-0.054428	
6534.796470	-0.057910	
6534.800468	-0.061738	
6534.802469	-0.070127	
6534.804468	-0.074635	
6534.808470	-0.080127	
6534.810470	-0.089817	
6534.812469	-0.094384	
6534.814469	-0.099865	
6534.816470	-0.105542	
6534.818470	-0.110150	
6534.822468	-0.116021	
6534.826469	-0.126288	
6534.828470	-0.136041	
6534.830470	-0.140126	
6534.832470	-0.144563	
6534.834469	-0.148079	
6534.838467	-0.150515	
6534.840469	-0.156636	
6534.842470	-0.158806	
6534.846470	-0.161452	
6534.848470	-0.160950	
6534.850475	-0.160927	
6534.852475	-0.159717	
6534.854476	-0.158941	
6534.856474	-0.157767	
6534.860474	-0.155991	
6534.864476	-0.150420	
6534.866475	-0.143133	
6534.868475	-0.138893	
6534.870476	-0.134765	
6534.872475	-0.130482	
6534.876474	-0.126240	
6534.878475	-0.118603	
6534.880477	-0.113112	
6534.884474	-0.109786	
6534.886475	-0.099836	
6534.888474	-0.096335	
6534.890475	-0.093127	
6534.892475	-0.089653	
6534.894476	-0.087734	
6534.896475	-0.085790	
6534.900474	-0.083874	
6534.902476	-0.080581	
6534.904475	-0.080121	
6534.906475	-0.079849	
6534.908476	-0.079355	
6534.910476	-0.081523	
6534.912476	-0.081867	
6534.914475	-0.082506	
6534.916476	-0.086276	
6534.920474	-0.087594	
6534.922475	-0.092456	
6534.924476	-0.094496	
6534.926476	-0.097504	
6534.928476	-0.101461	
6534.930474	-0.104037	
6534.932475	-0.107045	
6534.936473	-0.109446	
6534.938476	-0.116369	
6534.940476	-0.119210	
6534.942478	-0.121597	
6534.944476	-0.123759	
6534.946480	-0.125170	
6534.948480	-0.127368	
6534.950479	-0.129115	
6534.952480	-0.129582	
6534.954480	-0.131352	
6534.958478	-0.133447	
6534.960478	-0.134174	
6534.962480	-0.134348	
6534.964484	-0.132392	
6534.966484	-0.132199	
6534.968484	-0.130063	
6534.970482	-0.128709	
6534.972484	-0.126892	
6534.974484	-0.123752	
6534.978483	-0.121823	
6534.982484	-0.114358	
6534.984483	-0.104436	
6534.986483	-0.097301	
6534.988484	-0.092284	
6534.990484	-0.085471	
6534.994482	-0.078982	
6534.996484	-0.065352	
6534.998483	-0.058001	
6535.002483	-0.050590	
6535.004484	-0.034057	
6535.006482	-0.026661	
6535.008483	-0.018976	
6535.010484	-0.012898	
6535.012484	-0.005561	
6535.014486	-0.000719	
6535.018484	0.003994	
6535.020484	0.012381	
6535.022484	0.016990	
6535.024483	0.020247	
6535.026485	0.021029	
6535.028484	0.020759	
6535.030484	0.022006	
6535.032483	0.021484	
6535.034485	0.020407	
6535.038483	0.019121	
6535.040483	0.014248	
6535.042483	0.012324	
6535.044489	0.008505	
6535.046488	0.006944	
6535.048487	0.003293	
6535.050487	-0.000146	
6535.054485	-0.003466	
6535.058485	-0.009100	
6535.060488	-0.014164	
6535.062487	-0.015421	
6535.064487	-0.017507	
6535.066488	-0.017998	
6535.068487	-0.017926	
6535.072486	-0.018931	
6535.074487	-0.019232	
6535.076487	-0.018667	
6535.080486	-0.017418	
6535.082488	-0.013070	
6535.084488	-0.010103	
6535.086489	-0.006200	
6535.088487	-0.002922	
6535.090488	0.000749	
6535.094494	0.004902	
6535.096495	0.015746	
6535.098495	0.022129	
6535.100498	0.028327	
6535.102496	0.036007	
6535.104495	0.042554	
6535.106496	0.049759	
6535.108496	0.058779	
6535.110497	0.066849	
6535.112501	0.075651	
6535.118503	0.093248	
6535.120503	0.114126	
6535.122512	0.123951	
6535.124510	0.134001	
6535.126509	0.142305	
6535.130506	0.151479	
6535.132508	0.168355	
6535.134508	0.176490	
6535.138507	0.184076	
6535.140512	0.196966	
6535.142507	0.202272	
6535.144508	0.206502	
6535.146508	0.210191	
6535.148508	0.212654	
6535.152508	0.213783	
6535.156507	0.214774	
6535.158508	0.213215	
6535.160508	0.210453	
6535.162507	0.207644	
6535.164508	0.204079	
6535.168508	0.200357	
6535.170508	0.189445	
6535.172507	0.184169	
6535.176508	0.178209	
6535.178507	0.166464	
6535.180507	0.161453	
6535.182508	0.155308	
6535.184508	0.150515	
6535.186508	0.144224	
6535.190508	0.137941	
6535.194510	0.127702	
6535.196512	0.120527	
6535.198510	0.117553	
6535.200510	0.115168	
6535.202510	0.113165	
6535.206508	0.112004	
6535.208510	0.110624	
6535.210509	0.111051	
6535.214509	0.113234	
6535.216510	0.119264	
6535.218511	0.123274	
6535.220512	0.128603	
6535.222510	0.133401	
6535.224517	0.138944	
6535.226518	0.143971	
6535.230516	0.150061	
6535.232518	0.164281	
6535.234519	0.172929	
6535.236518	0.182015	
6535.238518	0.188953	
6535.240517	0.197379	
6535.242518	0.205007	
6535.246517	0.212628	
6535.248517	0.227609	
6535.250518	0.235184	
6535.252518	0.242487	
6535.254520	0.249066	
6535.256518	0.255612	
6535.258518	0.262120	
6535.260517	0.266709	
6535.262518	0.270947	
6535.266518	0.276013	
6535.270517	0.281077	
6535.272518	0.283678	
6535.274518	0.285113	
6535.276518	0.283845	
6535.278518	0.282212	
6535.280518	0.280433	
6535.284517	0.277120	
6535.286518	0.269042	
6535.288518	0.263783	
6535.292517	0.258480	
6535.294518	0.245584	
6535.296520	0.238611	
6535.298518	0.230812	
6535.300518	0.223417	
6535.302518	0.216142	
6535.306523	0.207376	
6535.310523	0.190591	
6535.312524	0.174484	
6535.314524	0.166474	
6535.316524	0.159350	
6535.318524	0.152194	
6535.322522	0.145667	
6535.324523	0.131858	
6535.326524	0.125624	
6535.330522	0.120405	
6535.332524	0.111643	
6535.334524	0.108831	
6535.336524	0.106023	
6535.338524	0.103425	
6535.340522	0.101407	
6535.342525	0.099606	
6535.346525	0.098259	
6535.348526	0.098060	
6535.350526	0.100388	
6535.352526	0.102314	
6535.354526	0.103687	
6535.356526	0.106386	
6535.358526	0.108783	
6535.360526	0.111936	
6535.362527	0.114661	
6535.364531	0.118757	
6535.368528	0.122069	
6535.370528	0.130613	
6535.372528	0.135231	
6535.374529	0.139872	
6535.376528	0.144313	
6535.378528	0.147466	
6535.382527	0.151638	
6535.384528	0.158129	
6535.386528	0.161963	
6535.390528	0.164793	
6535.418466	0.167912	
6535.420467	0.164287	
6535.424466	0.155492	
6535.426468	0.146937	
6535.428468	0.141024	
6535.430468	0.135823	
6535.432467	0.128373	
6535.434467	0.121434	
6535.438473	0.114861	
6535.440473	0.099375	
6535.442473	0.093860	
6535.444472	0.086836	
6535.446473	0.082412	
6535.448474	0.077545	
6535.450474	0.071650	
6535.452474	0.066407	
6535.454473	0.060818	
6535.458473	0.054704	
6535.460473	0.045804	
6535.462472	0.042643	
6535.464479	0.039495	
6535.466478	0.036568	
6535.468477	0.035030	
6535.470480	0.031832	
6535.472484	0.029611	
6535.474487	0.028517	
6535.478485	0.026497	
6535.482485	0.026455	
6535.484487	0.027342	
6535.486487	0.029147	
6535.488488	0.030584	
6535.490487	0.032330	
6535.494486	0.035087	
6535.496487	0.039337	
6535.498487	0.042831	
6535.502487	0.046202	
6535.504486	0.053855	
6535.506490	0.058009	
6535.508487	0.061459	
6535.510487	0.065653	
6535.512487	0.068511	
6535.514491	0.071754	
6535.518488	0.074415	
6535.520489	0.081175	
6535.522489	0.083463	
6535.524491	0.086981	
6535.526489	0.088741	
6535.528491	0.089748	
6535.530489	0.092053	
6535.532489	0.092009	
6535.534489	0.092215	
6535.538487	0.091801	
6535.540488	0.091026	
6535.542489	0.091229	
6535.544489	0.088747	
6535.546489	0.087946	
6535.548489	0.085283	
6535.550490	0.083043	
6535.554487	0.081117	
6535.556489	0.073788	
6535.558489	0.070590	
6535.560496	0.066998	
6535.562505	0.064112	
6535.564503	0.060389	
6535.566503	0.057065	
6535.568502	0.053738	
6535.570503	0.049881	
6535.572502	0.045908	
6535.576503	0.041792	
6535.578503	0.033425	
6535.580504	0.030092	
6535.582507	0.026960	
6535.584506	0.023162	
6535.586504	0.021236	
6535.588506	0.016035	
6535.590506	0.013809	
6535.592505	0.010094	
6535.596517	0.005541	
6535.600517	0.000062	
6535.602518	-0.005217	
6535.604516	-0.005603	
6535.606517	-0.007344	
6535.608517	-0.009634	
6535.612515	-0.010853	
6535.614516	-0.012839	
6535.616516	-0.014164	
6535.620516	-0.013166	
6535.622519	-0.011698	
6535.624517	-0.010623	
6535.626517	-0.010450	
6535.628518	-0.008687	
6535.630517	-0.006726	
6535.634516	-0.005067	
6535.638516	-0.000532	
6535.640517	0.005312	
6535.642519	0.008565	
6535.644519	0.010810	
6535.646525	0.014035	
6535.650523	0.017356	
6535.652526	0.022287	
6535.654525	0.025468	
6535.658524	0.028834	
6535.660525	0.032526	
6535.662524	0.035275	
6535.664525	0.036753	
6535.666525	0.038014	
6535.668525	0.039673	
6535.672524	0.039839	
6535.676525	0.040697	
6535.678524	0.040260	
6535.680525	0.040779	
6535.682523	0.038540	
6535.684525	0.038345	
6535.688522	0.036755	
6535.690523	0.032279	
6535.692525	0.029549	
6535.696524	0.026514	
6535.698526	0.022097	
6535.700525	0.019000	
6535.702525	0.016024	
6535.704524	0.012340	
6535.706525	0.009027	
6535.708526	0.005176	
6535.712524	0.000685	
6535.714526	-0.006748	
6535.716524	-0.009658	
6535.718525	-0.012547	
6535.720523	-0.016244	
6535.722524	-0.020196	
6535.724525	-0.023927	
6535.726524	-0.027760	
6535.728525	-0.031832	
6535.730523	-0.035439	
6535.734524	-0.038594	
6535.736525	-0.043891	
6535.738523	-0.046552	
6535.740525	-0.049456	
6535.742529	-0.051321	
6535.744525	-0.054440	
6535.748527	-0.056168	
6535.750527	-0.060251	
6535.752527	-0.060596	
6535.756528	-0.062370	
6535.758529	-0.062021	
6535.760528	-0.062427	
6535.762528	-0.061102	
6535.764527	-0.060807	
6535.766529	-0.059038	
6535.770527	-0.058316	
6535.774527	-0.055322	
6535.776529	-0.049708	
6535.778528	-0.047024	
6535.780528	-0.043858	
6535.782528	-0.041560	
6535.786526	-0.037758	
6535.788528	-0.032621	
6535.790529	-0.029922	
6535.794528	-0.026968	
6535.796530	-0.020706	
6535.798528	-0.018218	
6535.800529	-0.016471	
6535.802528	-0.013837	
6535.804528	-0.012261	
6535.806533	-0.011911	
6535.810529	-0.010892	
6535.812529	-0.010967	
6535.814529	-0.010329	
6535.816529	-0.010698	
6535.818529	-0.011026	
6535.820528	-0.012620	
6535.822528	-0.015016	
6535.824529	-0.017252	
6535.826528	-0.020465	
6535.830527	-0.024226	
6535.832528	-0.030933	
6535.834528	-0.033839	
6535.836529	-0.038147	
6535.838529	-0.042093	
6535.840529	-0.046701	
6535.842529	-0.052219	
6535.846537	-0.057597	
6535.848537	-0.068831	
6535.850538	-0.074745	
6535.852538	-0.080080	
6535.854541	-0.086063	
6535.856540	-0.091644	
6535.858540	-0.097895	
6535.860541	-0.104416	
6535.862540	-0.110393	
6535.864541	-0.116842	
6535.868541	-0.123214	
6535.872540	-0.134933	
6535.874540	-0.146022	
6535.876542	-0.151276	
6535.878541	-0.156470	
6535.880541	-0.161171	
6535.884538	-0.165774	
6535.886541	-0.173144	
6535.888540	-0.176165	
6535.892540	-0.179470	
6535.894541	-0.182130	
6535.896542	-0.183009	
6535.898541	-0.184133	
6535.900539	-0.183936	
6535.902541	-0.182724	
6535.906551	-0.182861	
6535.910553	-0.180574	
6535.912553	-0.176455	
6535.914552	-0.173522	
6535.916552	-0.171431	
6535.918553	-0.168021	
6535.922552	-0.165181	
6535.924552	-0.160536	
6535.926553	-0.157743	
6535.930552	-0.156039	
6535.932551	-0.150036	
6535.934553	-0.146487	
6535.936553	-0.144040	
6535.938552	-0.143158	
6535.940555	-0.140982	
6535.942553	-0.140400	
6535.946561	-0.140289	
6535.948561	-0.138740	
6535.950563	-0.139333	
6535.952562	-0.138075	
6535.954562	-0.139514	
6535.956562	-0.141405	
6535.958563	-0.143030	
6535.962561	-0.145333	
6535.966561	-0.152041	
6535.968563	-0.159994	
6535.970562	-0.163738	
6535.972563	-0.169096	
6535.974562	-0.173764	
6535.976562	-0.180259	
6535.980560	-0.186406	
6535.982563	-0.199841	
6535.984563	-0.206004	
6535.988562	-0.212570	
6535.990563	-0.226243	
6535.992562	-0.232565	
6535.994562	-0.240019	
6535.996562	-0.245873	
6535.998562	-0.252628	
6536.002562	-0.259081	
6536.006563	-0.269972	
6536.008562	-0.278566	
6536.010562	-0.282069	
6536.012562	-0.284870	
6536.014563	-0.287426	
6536.018561	-0.288696	
6536.020563	-0.290727	
6536.022561	-0.290414	
6536.026562	-0.288512	
6536.028564	-0.284150	
6536.030562	-0.279731	
6536.032563	-0.277666	
6536.034563	-0.273418	
6536.036563	-0.267493	
6536.038568	-0.263948	
6536.042575	-0.259363	
6536.044574	-0.250193	
6536.046576	-0.243217	
6536.048575	-0.238498	
6536.050576	-0.233220	
6536.052575	-0.228125	
6536.054574	-0.222931	
6536.056574	-0.219745	
6536.058575	-0.215273	
6536.062574	-0.212424	
6536.064577	-0.204796	
6536.066578	-0.201910	
6536.068576	-0.198032	
6536.070577	-0.195918	
6536.072577	-0.192894	
6536.074576	-0.190987	
6536.078574	-0.188927	
6536.080577	-0.185919	
6536.082574	-0.183409	
6536.084578	-0.180909	
6536.086577	-0.178418	
6536.088579	-0.176403	
6536.090578	-0.174850	
6536.092577	-0.173484	
6536.094578	-0.171957	
6536.098577	-0.169548	
6536.102576	-0.168774	
6536.104578	-0.165340	
6536.106579	-0.163795	
6536.108578	-0.162411	
6536.110579	-0.163634	
6536.112578	-0.163025	
6536.116576	-0.162925	
6536.118578	-0.162981	
6536.120578	-0.163537	
6536.124579	-0.163912	
6536.126579	-0.163910	
6536.130576	-0.162990	
6536.132578	-0.162953	
6536.134579	-0.161412	
6536.138579	-0.159517	
6536.140579	-0.156014	
6536.142577	-0.152812	
6536.144580	-0.149746	
6536.146582	-0.143976	
6536.148583	-0.139425	
6536.150582	-0.133814	
6536.152583	-0.128258	
6536.154583	-0.121395	
6536.156587	-0.115178	
6536.162590	-0.101077	
6536.164589	-0.085263	
6536.166591	-0.077440	
6536.170589	-0.062843	
6536.174589	-0.056480	
6536.176590	-0.044982	
6536.178590	-0.039209	
6536.182591	-0.035217	
6536.184590	-0.027626	
6536.186589	-0.024308	
6536.188591	-0.021617	
6536.190591	-0.020590	
6536.192590	-0.019739	
6536.196591	-0.020901	
6536.200592	-0.020703	
6536.202592	-0.021294	
6536.204591	-0.022112	
6536.206593	-0.022846	
6536.208592	-0.023214	
6536.212590	-0.024505	
6536.214593	-0.026257	
6536.216592	-0.027109	
6536.220592	-0.025210	
6536.222593	-0.023355	
6536.224593	-0.021641	
6536.226592	-0.019708	
6536.228592	-0.017476	
6536.230591	-0.013824	
6536.232599	-0.012136	
6536.236596	-0.008749	
6536.238596	-0.000549	
6536.240597	0.004751	
6536.242599	0.009008	
6536.244596	0.013846	
6536.246598	0.019771	
6536.248599	0.023878	
6536.252597	0.028960	
6536.254598	0.039368	
6536.256597	0.044066	
6536.258597	0.049812	
6536.260599	0.055502	
6536.262608	0.062145	
6536.264609	0.068917	
6536.266609	0.074763	
6536.268608	0.082115	
6536.272607	0.088838	
6536.276606	0.101559	
6536.278611	0.117301	
6536.280609	0.125085	
6536.282609	0.133474	
6536.284608	0.141466	
6536.286609	0.149408	
6536.290607	0.157136	
6536.292609	0.171826	
6536.294608	0.178546	
6536.298608	0.185573	
6536.300608	0.199080	
6536.302608	0.204972	
6536.304609	0.209477	
6536.306610	0.213736	
6536.308609	0.216320	
6536.312609	0.217581	
6536.314609	0.220278	
6536.316608	0.219589	
6536.318611	0.219737	
6536.320615	0.217796	
6536.322616	0.214905	
6536.324615	0.211662	
6536.326614	0.207040	
6536.328615	0.201427	
6536.332615	0.196155	
6536.336614	0.183735	
6536.338615	0.171619	
6536.340615	0.171438	
6536.342615	0.158611	
6536.344615	0.150461	
6536.348613	0.144385	
6536.350615	0.132400	
6536.352615	0.127706	
6536.356616	0.122608	
6536.358615	0.116851	
6536.360615	0.113260	
6536.362615	0.111616	
6536.364615	0.110585	
6536.366615	0.110027	
6536.370613	0.111103	
6536.374614	0.113756	
6536.376616	0.119869	
6536.378615	0.123684	
6536.380615	0.128984	
6536.382616	0.133363	
6536.386613	0.139418	
6536.388615	0.149867	
6536.390615	0.157179	
6536.394615	0.163767	
6536.396616	0.178036	
6536.398614	0.186092	
6536.400615	0.192610	
6536.402615	0.201311	
6536.404615	0.208564	
6536.408613	0.215682	
6536.412615	0.229393	
6536.414615	0.245180	
6536.416615	0.251822	
6536.418615	0.259313	
6536.420615	0.265418	
6536.424614	0.271853	
6536.426617	0.281617	
6536.428617	0.285382	
6536.432617	0.289993	
