num crossings	time (s)	maj axis (mm)	min axis (mm)	theta (rad )	slope (V/s)
5291	5796.486403	31.221506	10.826700	2.380060	2.275421
5293	5798.574124	32.933017	11.639445	2.366740	1.736086
5295	5800.642150	32.077346	8.507319	2.376279	1.930153
5297	5802.769542	34.329955	10.685829	2.321329	1.770095
5299	5804.862910	33.991697	11.047956	2.396853	1.783691
5301	5806.943479	33.589229	11.081646	2.380075	1.934664
5303	5809.042604	35.397637	10.572580	2.349868	1.568239
5305	5811.133998	32.939715	10.675879	2.398307	1.929161
5307	5813.222868	34.015867	11.742301	2.368249	0.665701
5309	5815.302761	36.742699	10.169780	2.351717	1.635318
5311	5817.378137	35.605471	9.663902	2.357052	2.752419
5313	5819.506623	33.669376	10.500578	2.433057	2.213930
5315	5821.575351	36.032214	9.812864	2.373580	1.544064
5317	5823.667754	33.213939	11.539650	2.408049	2.797467
5319	5825.764333	37.920548	10.442930	2.439811	2.477458
5321	5827.848131	34.206180	10.687532	2.364537	2.377023
5323	5829.944383	37.131719	8.994647	2.374295	2.709347
5325	5832.046165	35.480944	11.885508	2.410131	1.389628
5327	5834.120653	36.464609	10.278806	2.337388	1.742188
5329	5836.229045	38.410968	9.979380	2.357775	2.361586
5331	5838.313352	39.129792	9.206945	2.361576	1.953708
5333	5840.386887	37.267689	9.172521	2.348590	3.035777
5335	5842.518244	37.097455	10.520660	2.496812	3.080531
5337	5844.575726	38.274439	9.154350	2.353389	2.356535
5339	5846.657627	37.845156	8.891413	2.366108	2.643948
5341	5848.776208	38.334154	9.900053	2.405367	3.079535
5343	5850.878969	39.114688	10.779319	2.504211	2.876330
5345	5852.967978	39.993009	8.961586	2.356922	3.014906
5347	5855.056727	40.571132	8.921771	2.353540	2.202687
5349	5857.145324	40.594210	8.913734	2.357924	2.536023
5351	5859.227304	39.186789	8.784644	2.369115	1.921767
5353	5861.303103	39.017921	8.357800	2.367119	2.234552
5355	5863.387721	40.770718	8.914934	2.385563	2.757110
5357	5865.496303	38.283808	8.069433	2.380601	2.789784
5359	5867.597836	40.358632	8.596538	2.411624	2.101098
5361	5869.662669	39.540174	6.739216	2.406157	2.215819
5363	5871.758128	40.579143	8.268054	2.378940	2.848568
5365	5873.865438	40.487524	8.596149	2.370692	2.617506
5367	5875.923114	41.466357	9.103708	2.386168	3.156905
5369	5878.040922	38.826574	11.224273	2.384939	3.258211
5371	5880.133638	43.413538	9.069080	2.416290	2.829417
5373	5882.204587	39.687604	7.606788	2.397086	2.761759
5375	5884.310274	39.746878	7.518831	2.377786	3.147974
5377	5886.408726	41.428319	8.115287	2.382112	2.543023
5379	5888.492949	41.427950	7.799122	2.393765	3.083501
5381	5890.573126	42.662149	8.238408	2.389133	2.923441
5383	5892.676283	40.661463	7.429732	2.391400	2.985516
5385	5894.778168	43.210268	8.060259	2.369090	3.158666
5387	5896.872241	42.126406	7.032185	2.396206	2.376081
5389	5898.966792	43.621992	8.068007	2.372037	2.264962
5391	5901.056590	42.775172	6.936449	2.405714	2.805792
5393	5903.140572	44.845124	7.930531	2.375451	2.947623
5395	5905.223025	42.521073	7.267857	2.392242	3.752588
5397	5907.302663	41.793280	7.614091	2.384033	2.139509
5399	5909.398665	41.471092	7.303444	2.391111	2.952080
5401	5911.515415	41.310134	9.605821	2.473444	3.404172
5403	5913.593569	43.406094	10.459612	2.495215	3.520426
5405	5915.660853	42.733662	7.719559	2.384937	2.766412
5407	5917.761251	41.713207	7.916812	2.412408	3.547448
5409	5919.874457	46.393647	9.458584	2.600537	3.524503
5411	5921.944293	45.979103	7.685996	2.385643	3.339819
5413	5924.016929	45.471817	7.798665	2.372624	3.168447
5415	5926.130038	42.925049	7.074602	2.410362	3.913687
5417	5928.236923	41.887496	7.688320	2.455539	3.664595
5419	5930.315942	45.604198	10.933989	2.475847	3.757672
5421	5932.388275	43.605943	6.572834	2.391850	2.976724
5423	5934.470817	43.603391	7.258440	2.398285	3.021730
5425	5936.561173	46.253912	7.657919	2.383606	4.344552
5427	5938.655215	45.705924	7.632526	2.387035	3.455492
5429	5940.752253	43.773366	6.654760	2.402659	3.750283
5431	5942.840485	43.968582	6.777290	2.404870	3.351721
5433	5944.927865	44.008508	6.677218	2.409082	3.357444
5435	5947.016733	46.244511	7.496878	2.395733	3.559687
5437	5949.107810	46.713219	7.412271	2.396625	3.078858
5439	5951.207926	47.121656	7.320569	2.388703	3.195387
5441	5953.311862	43.687852	8.195556	2.484154	3.882330
5443	5955.399134	44.106507	7.837962	2.435442	3.783024
5445	5957.470076	44.261067	7.241625	2.430037	3.254296
5447	5959.551578	45.101975	8.131373	2.439976	3.551723
5449	5961.653128	43.587481	10.449219	2.410864	4.113785
5451	5963.761685	47.502820	7.356688	2.379152	4.053744
5453	5965.844615	45.974679	6.957978	2.419171	3.397065
5455	5967.916414	46.479355	7.101552	2.418011	3.204515
5457	5970.000125	45.406078	8.068469	2.463322	3.917996
5459	5972.097239	45.267716	7.558788	2.449063	3.889523
5461	5974.196316	44.368753	10.961739	2.414399	3.244261
5463	5976.294727	47.640313	7.174906	2.389358	4.050213
5465	5978.389284	47.875208	7.230239	2.391926	3.834153
5467	5980.479108	48.929746	7.204868	2.393195	3.439713
5469	5982.568182	48.122782	7.139063	2.395834	3.632240
5471	5984.658428	48.151852	7.181837	2.394395	3.877080
5473	5986.744985	48.091161	7.152869	2.399005	3.566782
5475	5988.830024	48.295225	9.050628	2.519697	3.839653
5477	5990.909283	45.295841	9.996152	2.417400	3.574768
5479	5992.991117	47.576293	6.541399	2.437508	3.877688
5481	5995.081361	45.484759	7.161070	2.423257	4.237722
5483	5997.182554	45.510548	6.778441	2.440845	3.952251
5485	5999.284659	45.774711	6.804679	2.466608	3.839119
5487	6001.375373	49.671507	9.116417	2.541515	3.456806
5489	6003.455064	49.634827	6.969967	2.405276	3.654939
5491	6005.532929	46.810531	6.371862	2.423000	3.898519
5493	6007.618632	47.822520	6.299089	2.434954	3.915489
5495	6009.716214	45.082854	7.772238	2.446594	3.935578
5497	6011.814252	46.569800	5.980823	2.430056	3.671812
5499	6013.912499	49.703985	7.041214	2.418079	3.565804
5501	6016.003850	46.140837	7.580777	2.478988	3.667398
5503	6018.094774	45.740057	7.904471	2.490647	3.773312
5505	6020.184049	51.141332	9.570494	2.560913	3.846516
5507	6022.273779	49.602682	6.870665	2.403935	3.966768
5509	6024.364709	46.235765	7.542650	2.492320	4.008467
5511	6026.452953	45.960863	7.526983	2.475209	3.834787
5513	6028.541151	46.373480	6.856736	2.460553	3.767724
5515	6030.626114	49.038400	7.327768	2.500634	3.861826
5517	6032.706924	50.106245	6.783666	2.416375	3.749882
5519	6034.789322	47.642918	6.708189	2.452547	4.113851
5521	6036.877674	47.354295	6.479324	2.459906	3.920144
5523	6038.972180	47.338816	8.850055	2.432838	3.874963
5525	6041.072126	49.922164	6.664568	2.405562	4.113887
5527	6043.169047	48.123886	5.465679	2.436696	3.960552
5529	6045.258786	48.399035	6.314180	2.445072	3.900820
5531	6047.343112	48.601240	6.185598	2.449257	3.847464
5533	6049.425396	48.245483	6.390584	2.453831	4.137066
5535	6051.507392	47.910576	5.702050	2.441811	4.132615
5537	6053.595596	49.787753	6.877662	2.431295	4.030144
5539	6055.682025	49.880828	6.830625	2.426207	4.267375
5541	6057.773535	47.840043	6.378813	2.456600	4.157276
5543	6059.864200	47.640588	6.237876	2.445927	4.274408
5545	6061.941068	48.488607	5.919359	2.443564	4.185250
5547	6064.042714	47.894207	6.201026	2.455276	4.683381
5549	6066.131377	47.233201	7.756728	2.450487	4.395768
5551	6068.221319	48.227889	6.134769	2.453125	4.367703
5553	6070.314083	48.230839	6.319114	2.452416	4.149877
5555	6072.408772	47.297431	7.451818	2.457191	4.037024
5557	6074.504341	48.215651	5.613890	2.448931	3.957631
5559	6076.603185	50.523153	6.618736	2.430842	4.174939
5561	6078.695228	49.110924	5.719661	2.463447	4.216666
5563	6080.782223	47.313641	5.960948	2.483212	4.257969
5565	6082.864018	49.297132	9.894387	2.476155	4.208642
5567	6084.946186	51.657541	6.659325	2.424015	3.919873
5569	6087.030155	48.762914	5.931101	2.447472	3.995061
5571	6089.117887	49.847508	5.844788	2.454678	4.697912
5573	6091.210014	48.943311	6.012660	2.451485	4.592380
5575	6093.307275	47.928182	5.824374	2.486563	4.372338
5577	6095.399691	50.638014	6.539971	2.434361	4.310318
5579	6097.491685	50.762677	6.559322	2.435062	4.016200
